voltage,current
1.205,0.1207
1.338,0.1363
1.501,0.1496
1.665,0.164
1.802,0.1806
1.944,0.1948
2.104,0.2082
2.246,0.2253
2.393,0.24
2.532,0.2531
2.717,0.2714
2.847,0.2859
3.017,0.3007
3.135,0.3139
3.286,0.3281
3.454,0.3443
3.585,0.3598
3.766,0.3731
3.908,0.3894
4.037,0.4051
4.19,0.4202
